Date,Open,High,Low,Close,Volume
2006-09-18,11.25,16.20,11.25,16.20,28062
2006-09-25,19.45,40.45,19.45,40.45,114229
2006-10-03,46.40,58.30,42.00,49.15,13958087
2006-10-09,46.10,55.30,43.05,51.50,7140331
2006-10-16,52.50,53.50,46.00,46.45,1291277
2006-10-23,46.00,46.95,45.05,45.40,246427
2006-10-30,45.00,46.90,44.05,45.45,378873
2006-11-06,45.45,46.75,42.25,43.55,339908
2006-11-13,44.00,44.50,35.05,41.20,310273
2006-11-20,42.00,44.00,33.25,42.20,272728
2006-11-27,42.55,44.70,40.80,42.15,386620
2006-12-04,41.70,42.40,40.05,40.25,212102
2006-12-11,40.00,41.00,37.50,39.95,357134
2006-12-18,40.00,40.25,38.55,38.95,189845
2006-12-26,39.00,46.50,39.00,42.70,895238
2007-01-02,42.85,47.45,41.90,46.85,819363
2007-01-08,47.00,48.00,41.30,41.70,712057
2007-01-15,44.00,44.00,40.25,40.65,233011
2007-01-22,40.55,40.55,38.40,40.05,242255
2007-01-29,33.55,40.90,33.55,39.20,91764
2007-02-05,40.00,42.95,38.00,39.70,355605
2007-02-12,39.10,39.80,36.20,39.35,174900
2007-02-19,39.50,41.90,36.25,36.35,142360
2007-02-26,36.85,38.90,30.20,35.55,174693
2007-03-05,35.00,35.00,26.50,32.45,254810
2007-03-12,32.60,32.95,30.25,31.60,208302
2007-03-19,31.35,32.50,31.05,32.05,123342
2007-03-26,31.80,33.00,30.70,31.80,186504
2007-04-02,31.70,31.90,28.80,30.15,214844
2007-04-09,30.20,34.45,29.50,33.95,248432
2007-04-16,34.00,35.95,33.25,33.45,133169
2007-04-23,33.35,34.45,31.60,32.15,121666
2007-04-30,30.10,32.90,30.10,32.30,42211
2007-05-07,32.10,33.60,31.10,31.60,94045
2007-05-14,32.00,32.35,31.20,31.40,128993
2007-05-21,31.40,39.70,31.40,33.60,1481256
2007-05-28,33.05,35.80,32.00,32.60,225094
2007-06-04,32.50,33.90,31.30,31.55,220172
2007-06-11,32.10,34.25,31.20,32.55,211841
2007-06-18,32.30,35.20,32.30,33.40,328548
2007-06-25,33.50,34.75,31.00,32.40,547248
2007-07-02,32.50,33.50,30.05,32.10,416183
2007-07-09,32.70,32.70,31.10,31.30,226651
2007-07-16,31.90,32.40,30.50,30.80,311223
2007-07-23,31.00,31.20,29.05,29.40,172187
2007-07-30,28.55,29.45,28.20,28.20,106961
2007-08-06,28.05,29.00,27.00,27.10,163544
2007-08-13,27.50,27.80,25.90,26.20,154144
2007-08-20,27.45,27.45,25.05,25.85,137233
2007-08-27,26.00,29.50,26.00,28.85,184638
2007-09-03,29.80,31.60,28.10,29.70,342977
2007-09-10,29.25,33.70,29.05,31.75,453935
2007-09-17,30.95,32.35,29.55,29.75,305376
2007-09-24,31.95,34.80,28.50,31.55,412003
2007-10-01,31.00,32.80,29.75,29.90,303141
2007-10-08,30.00,30.20,28.00,28.40,231609
2007-10-15,28.15,29.40,26.10,26.75,202342
2007-10-22,26.80,27.95,26.50,27.20,135906
2007-10-29,26.85,27.40,25.15,25.30,164816
2007-11-05,25.45,27.00,25.10,26.55,117414
2007-11-12,25.55,31.40,25.55,30.30,492840
2007-11-19,31.95,33.10,27.05,28.20,513804
2007-11-26,28.50,30.80,28.00,28.65,118728
2007-12-03,28.25,35.00,28.00,30.60,680878
2007-12-10,32.00,42.65,30.60,40.35,3030672
2007-12-17,40.85,41.15,34.05,36.15,1079183
2007-12-24,36.50,38.50,34.10,37.45,560120
2007-12-31,38.40,44.80,38.00,41.25,2216472
2008-01-07,40.10,48.35,39.00,39.90,4271526
2008-01-14,37.55,41.90,35.00,35.55,911123
2008-01-21,35.40,35.40,23.40,28.85,614953
2008-01-28,27.45,30.75,26.05,27.40,308276
2008-02-04,28.85,29.95,27.00,27.50,265201
2008-02-11,28.00,31.45,25.05,31.45,300022
2008-02-18,33.00,40.20,32.50,33.00,2630427
2008-02-25,33.60,34.20,30.95,32.60,548850
2008-03-03,31.00,33.40,26.10,26.40,310717
2008-03-10,25.20,31.75,25.00,27.90,439671
2008-03-17,26.10,28.00,25.00,27.10,162690
2008-03-24,26.30,30.40,25.10,29.60,238757
2008-03-31,34.00,34.00,28.40,30.80,242194
2008-04-07,30.05,34.60,30.05,34.10,510392
2008-04-15,33.00,36.70,33.00,36.00,392187
2008-04-21,35.85,41.80,34.00,40.55,1532563
2008-04-28,41.50,47.25,37.65,38.95,3555614
2008-05-05,39.90,42.20,37.00,37.00,479980
2008-05-12,36.80,38.80,36.00,37.50,261742
2008-05-20,37.50,40.35,37.00,37.90,334441
2008-05-26,36.10,39.40,36.00,37.40,236603
2008-06-02,37.50,37.90,32.05,32.30,164373
2008-06-09,30.40,34.50,30.40,32.15,116178
2008-06-16,32.85,35.10,30.05,31.35,179480
2008-06-23,30.10,33.00,28.00,29.20,105607
2008-06-30,29.00,30.50,24.50,27.05,110312
2008-07-07,28.00,29.45,26.60,28.50,63855
2008-07-14,28.50,32.00,26.50,29.45,108963
2008-07-21,28.35,30.05,27.50,28.70,80408
2008-07-28,28.90,29.50,27.55,28.15,63599
2008-08-04,28.50,31.60,28.25,29.55,92175
2008-08-11,29.75,33.00,28.80,29.60,84795
2008-08-18,29.10,29.95,27.90,28.30,43655
2008-08-25,29.00,30.15,28.10,28.40,35957
2008-09-01,28.25,29.10,27.50,27.70,52467
2008-09-08,29.50,29.50,27.50,27.75,45612
2008-09-15,27.40,27.40,24.90,25.60,46468
2008-09-22,25.85,26.30,24.65,24.95,21878
2008-09-29,24.25,25.50,20.05,22.00,36541
2008-10-06,20.35,23.00,15.05,16.05,110841
2008-10-13,18.80,19.85,15.00,16.75,39962
2008-10-20,16.60,16.90,14.00,14.40,66771
2008-10-27,13.10,15.10,11.80,15.00,40002
2008-11-03,15.30,17.50,14.55,15.15,37231
2008-11-10,14.00,15.80,13.10,13.50,27327
2008-11-17,13.10,15.00,12.55,13.15,66197
2008-11-24,13.00,13.75,12.15,13.10,20839
2008-12-01,12.50,15.60,12.10,13.05,16790
2008-12-08,13.05,14.50,12.55,13.40,36516
2008-12-15,14.15,17.65,11.20,16.15,146952
2008-12-22,16.50,16.50,13.20,14.05,17149
2008-12-29,14.00,16.25,13.80,16.00,44225
2009-01-05,16.00,16.25,13.40,14.25,32724
2009-01-12,14.05,14.65,13.40,13.85,18610
2009-01-19,13.15,14.00,12.50,12.65,18855
2009-01-27,12.70,13.40,12.30,12.75,20351
2009-02-02,12.35,13.50,12.30,13.00,39068
2009-02-09,13.00,15.90,12.50,14.90,354269
2009-02-16,14.50,15.15,12.60,12.60,44042
2009-02-24,12.60,13.20,12.05,12.30,33902
2009-03-02,12.10,12.75,10.30,11.55,42913
2009-03-09,11.15,12.00,11.10,11.90,33106
2009-03-16,11.50,13.20,11.00,12.75,24322
2009-03-23,12.70,13.15,11.70,13.00,66510
2009-03-30,13.00,13.60,11.80,13.30,54031
2009-04-06,13.35,14.55,13.00,14.35,49540
2009-04-13,14.10,17.40,14.10,15.55,169197
2009-04-20,15.55,18.30,15.50,17.25,141909
2009-04-27,17.95,18.15,16.00,16.50,75028
2009-05-04,16.90,18.25,16.00,16.45,90732
2009-05-11,17.50,17.50,15.35,15.55,53784
2009-05-18,16.90,21.00,15.05,19.45,268661
2009-05-25,20.30,26.60,19.45,23.65,1281079
2009-06-01,24.00,24.40,22.70,23.00,693017
2009-06-08,23.20,23.40,19.20,19.90,204881
2009-06-15,19.85,20.30,17.20,17.55,182298
2009-06-22,18.90,18.90,16.90,17.75,114482
2009-06-29,18.45,18.45,16.20,16.75,111217
2009-07-06,16.90,17.40,15.05,15.60,57509
2009-07-13,15.20,18.00,14.50,16.30,73011
2009-07-20,16.35,17.65,15.90,17.00,88259
2009-07-27,17.85,19.90,16.75,18.20,392429
2009-08-03,17.80,19.95,16.80,16.95,200361
2009-08-10,17.10,19.75,15.25,18.35,746873
2009-08-17,18.00,18.80,17.30,17.80,123425
2009-08-24,18.00,21.80,17.85,19.05,927770
2009-08-31,18.80,21.60,18.10,21.10,911407
2009-09-07,22.20,22.20,18.50,18.70,1212831
2009-09-14,18.70,19.80,17.90,18.60,349842
2009-09-22,19.00,20.80,18.35,18.75,284765
2009-09-29,19.20,19.75,18.50,18.70,203456
2009-10-05,18.60,18.85,17.70,17.85,182671
2009-10-12,18.00,18.60,17.30,17.70,113935
2009-10-20,18.10,18.15,17.10,17.15,105913
2009-10-26,17.90,17.90,15.55,15.95,148406
2009-11-03,15.25,16.10,14.25,15.65,113794
2009-11-09,15.60,18.30,15.55,17.05,390484
2009-11-16,17.70,17.80,16.35,16.65,131086
2009-11-23,16.60,17.90,16.00,17.25,160472
2009-11-30,18.00,33.15,18.00,28.25,4378129
2009-12-07,28.00,37.80,25.80,37.80,3954617
2010-02-15,23.35,25.35,23.35,23.35,282352
2010-02-22,23.50,24.00,20.05,20.55,870689
2010-03-02,20.55,21.60,18.70,21.15,1546758
2010-03-08,22.25,25.60,21.90,23.40,1808088
2010-03-15,23.00,23.25,20.35,21.90,841679
2010-03-22,21.50,21.90,20.30,21.20,250739
2010-03-29,22.00,22.75,20.60,21.75,318381
2010-04-05,21.95,27.55,21.95,26.25,2220375
2010-04-12,26.40,26.40,21.45,21.45,1917872
2010-06-07,18.25,18.85,18.25,18.50,20676
2010-06-14,18.60,18.70,17.90,17.90,398537
2010-06-21,17.85,18.60,17.75,17.90,449129
2010-06-28,18.30,18.85,17.50,17.90,578135
2010-07-05,18.10,18.25,17.65,17.95,453382
2010-07-12,18.00,18.50,17.25,17.60,616034
2010-07-19,17.80,17.85,17.50,17.70,137251
2010-07-26,17.80,18.00,16.80,17.05,185854
2010-08-02,17.20,18.00,15.85,15.90,1123257
2010-08-09,16.00,16.10,15.45,15.80,925561
2010-08-16,15.95,16.40,14.85,15.10,693730
2010-08-23,15.10,16.80,15.10,15.90,2077801
2010-08-30,16.30,16.40,15.55,15.65,660606
2010-09-06,15.65,18.25,15.50,16.70,3412690
2010-09-13,17.00,23.15,16.50,20.00,10686644
2010-09-20,20.00,20.50,18.30,18.85,2053448
2010-09-27,19.30,24.85,18.55,21.65,9538604
2010-10-04,21.05,23.00,20.10,21.80,2464177
2010-10-11,21.60,22.15,19.75,20.30,888452
2010-10-18,20.10,20.60,19.30,19.70,964852
2010-10-25,20.00,20.70,19.50,19.80,1039470
2010-11-01,20.15,21.70,19.60,20.60,405565
2010-11-08,20.65,21.40,19.05,19.45,1108916
2010-11-15,19.25,19.80,18.05,18.35,312177
2010-11-22,18.70,19.80,17.10,17.55,486605
2010-11-29,17.55,21.25,17.10,19.45,950016
2010-12-06,19.65,19.70,16.90,17.70,404473
2010-12-13,18.00,25.35,18.00,23.30,5987060
2010-12-20,22.25,23.30,20.20,20.70,1858039
2011-01-24,18.10,18.50,17.50,17.80,81086
2011-01-31,17.65,18.30,17.20,17.40,140416
2011-02-07,17.50,17.80,15.35,15.95,130174
2011-02-14,16.05,18.95,15.90,18.95,468965
2011-02-21,19.40,20.50,18.85,18.90,783835
2011-02-28,18.85,19.00,17.60,18.05,108654
2011-03-07,17.50,18.45,17.20,18.30,213129
2011-03-14,18.25,19.55,18.00,19.50,370010
2011-03-21,19.50,19.80,18.00,18.15,169101
2011-03-28,18.15,19.50,17.60,18.80,196630
2011-04-04,18.65,19.35,18.10,18.75,181530
2011-04-11,18.45,18.90,18.15,18.35,56836
2011-04-18,18.40,19.00,18.20,18.50,60537
2011-04-25,18.35,18.65,17.50,17.75,91709
2011-05-02,17.45,18.10,17.05,17.25,40796
2011-05-09,17.05,17.80,16.75,17.00,33523
2011-05-16,16.95,17.25,15.85,15.95,68062
2011-05-23,15.75,16.15,15.15,15.45,83834
2011-05-30,15.45,16.60,15.30,15.95,46254
2011-06-06,15.55,16.35,15.55,16.00,61712
2011-06-13,16.00,16.85,15.60,16.35,43795
2011-06-20,16.05,16.20,14.50,15.15,56487
2011-06-27,15.00,15.90,14.70,15.45,62805
2011-07-04,15.75,16.00,15.00,15.50,94793
2011-07-11,15.15,15.50,14.85,15.20,50260
2011-07-18,15.10,15.85,14.90,15.05,104228
2011-07-25,15.05,15.65,14.90,15.00,97739
2011-08-01,15.05,15.05,13.25,13.55,79602
2011-08-08,13.30,14.00,12.80,13.10,61077
2011-08-16,13.20,13.35,10.30,10.90,85351
2011-08-22,11.00,12.15,10.75,11.00,58660
2011-08-29,10.60,12.40,10.60,11.55,37780
2011-09-05,11.70,12.90,11.30,12.55,113600
2011-09-12,12.00,12.70,11.55,12.05,112401
2011-09-19,11.85,12.50,11.10,11.40,52155
2011-09-26,11.95,12.50,10.70,11.05,29249
2011-10-03,11.00,12.10,10.40,10.65,43878
2011-10-10,10.05,15.25,10.05,14.10,717014
2011-10-17,13.80,14.20,12.10,12.90,100604
2011-10-24,13.45,13.45,11.95,12.60,46776
2011-10-31,12.50,13.05,12.00,12.35,226502
2011-11-08,12.30,12.85,12.00,12.15,43284
2011-11-14,12.00,13.00,9.70,9.90,92428
2011-11-21,10.00,11.30,8.50,9.45,1226786
2011-11-28,9.50,10.25,9.00,9.55,41039
2011-12-05,9.50,9.80,9.00,9.50,55911
2011-12-12,9.10,9.80,7.70,7.90,143447
2011-12-19,8.00,8.30,7.50,8.00,79661
2011-12-26,8.40,8.40,7.10,7.65,52956
2012-01-02,7.25,8.75,7.25,8.60,62485
2012-01-09,8.90,11.40,8.45,11.30,304730
2012-01-16,11.80,11.95,9.80,9.85,219669
2012-01-23,9.90,10.10,9.25,9.85,34443
2012-01-30,9.60,10.50,9.40,9.90,67545
2012-02-06,10.10,10.35,9.60,9.75,42280
2012-02-13,9.75,10.20,9.50,9.80,76069
2012-02-21,9.85,10.10,9.05,9.05,44799
2012-02-27,9.10,9.60,8.60,9.15,26792
2012-03-05,9.45,9.45,8.35,8.55,47636
2012-03-12,8.65,9.15,8.40,8.45,51832
2012-03-19,8.50,9.25,8.10,8.20,70648
2012-03-26,8.00,8.65,7.55,7.80,47281
2012-04-02,7.95,8.50,7.90,8.25,16153
2012-04-09,8.10,8.50,8.00,8.30,30543
2012-04-16,8.00,9.95,7.80,8.95,154206
2012-04-23,9.00,9.80,8.10,8.50,164922
2012-04-30,8.40,8.85,7.85,8.00,32009
2012-05-07,8.00,8.35,7.05,7.80,44044
2012-05-14,7.55,7.95,6.50,7.10,39723
2012-05-21,7.15,8.20,7.00,7.15,23225
2012-05-28,7.45,9.30,7.05,7.70,128115
2012-06-04,7.25,9.75,7.25,8.80,187329
2012-06-11,8.55,8.90,7.25,8.25,35022
2012-06-18,8.25,8.50,7.85,8.15,28621
2012-06-25,8.50,9.00,8.00,8.60,56338
2012-07-02,8.80,10.40,8.70,9.70,132452
2012-07-09,9.15,10.90,9.15,9.95,259566
2012-07-16,9.85,9.90,9.15,9.40,70502
2012-07-23,9.15,10.50,8.60,8.60,29521
2012-07-30,8.50,8.85,8.05,8.25,35984
2012-08-06,8.45,8.70,8.15,8.20,34021
2012-08-13,8.20,9.70,8.10,8.20,26481
2012-08-21,8.10,10.35,8.05,9.90,166515
2012-08-27,9.65,9.85,8.75,9.05,98716
2012-09-03,8.90,14.20,8.90,12.65,2878078
2012-09-10,13.00,13.00,10.45,11.00,400564
2012-09-17,11.75,13.20,10.60,12.60,305008
2012-09-24,13.00,13.00,11.80,12.25,204499
2012-10-01,12.10,14.70,11.80,13.35,1556875
2012-10-08,13.30,14.40,13.20,13.45,460858
2012-10-15,13.75,16.30,13.15,13.30,2137410
2012-10-22,13.20,14.25,12.45,12.55,205393
2012-10-29,13.00,13.00,11.70,11.85,182465
2012-11-05,11.70,13.60,11.20,12.70,256202
2012-11-12,12.50,13.00,11.60,12.45,111017
2012-11-19,12.20,16.45,12.00,14.95,2214314
2012-11-26,15.00,16.50,14.25,14.25,990385
2012-12-03,15.45,17.10,14.25,15.90,1975845
2012-12-10,16.00,17.40,14.60,15.70,1162666
2012-12-17,15.90,15.90,13.75,13.75,365909
2012-12-24,13.95,14.90,13.55,13.70,169196
2012-12-31,13.75,14.55,12.25,14.40,395525
2013-01-07,14.40,14.50,13.20,13.40,144893
2013-01-14,13.40,13.65,12.40,12.65,127258
2013-01-21,12.55,12.80,10.95,11.30,117239
2013-01-28,11.20,12.50,9.85,12.15,127183
2013-02-04,12.00,12.10,10.50,10.50,59184
2013-02-11,10.55,11.40,9.85,10.00,53437
2013-02-18,10.25,10.85,9.75,10.60,78725
2013-02-25,10.30,10.60,8.20,8.40,162197
2013-03-04,8.35,9.25,8.05,8.50,190897
2013-03-11,8.45,8.70,8.00,8.20,112558
2013-03-18,8.05,8.35,7.35,7.40,64818
2013-03-25,7.90,8.00,7.20,7.45,112078
2013-04-01,7.55,8.60,7.50,7.95,101025
2013-04-08,7.70,8.15,7.35,7.65,49828
2013-04-15,7.65,8.25,7.20,8.05,34806
2013-04-22,8.00,8.10,7.50,7.70,55613
2013-04-29,7.70,7.80,7.25,7.70,34235
2013-05-06,7.40,7.80,7.40,7.50,70957
2013-05-13,7.45,7.70,7.30,7.50,77379
2013-05-20,7.40,7.70,7.00,7.30,69900
2013-05-27,7.15,7.55,6.60,6.85,36892
2013-06-03,6.70,7.20,6.20,6.95,44731
2013-06-10,6.70,7.15,5.80,6.25,27009
2013-06-17,6.50,7.00,5.65,6.20,37454
2013-06-24,6.00,6.00,5.05,5.20,45609
2013-07-01,5.05,5.95,5.05,5.30,49059
2013-07-08,5.70,5.90,5.20,5.25,33551
2013-07-15,5.20,5.50,5.10,5.30,38781
2013-07-22,5.20,5.45,4.10,4.85,89344
2013-07-29,4.70,5.30,3.85,5.30,87306
2013-08-05,5.10,5.15,4.20,4.50,48856
2013-08-12,4.45,5.30,4.45,4.60,46409
2013-08-19,4.60,4.90,4.30,4.80,32967
2013-08-26,4.95,4.95,4.00,4.45,75553
2013-09-02,4.50,4.85,4.30,4.85,40474
2013-09-10,4.95,6.90,4.45,6.75,204247
2013-09-16,7.20,7.20,5.50,5.50,94038
2013-09-23,5.60,5.90,5.05,5.35,34570
2013-09-30,5.00,6.35,5.00,5.90,84461
2013-10-07,5.80,6.35,5.70,6.00,47687
2013-10-14,5.90,6.05,5.60,5.60,27390
2013-10-21,6.05,6.20,5.70,5.95,52080
2013-10-28,6.50,6.55,5.85,6.00,44250
2013-11-05,5.85,6.90,5.80,6.50,111377
2013-11-11,6.75,6.75,5.90,6.05,57670
2013-11-18,6.10,6.60,5.90,6.30,38885
2013-11-25,6.20,6.65,6.10,6.45,31120
2013-12-02,6.30,6.50,5.60,6.20,53062
2013-12-09,6.10,6.25,5.90,5.90,52281
2013-12-16,6.00,6.15,5.45,5.65,49661
2013-12-23,6.10,6.85,5.65,6.70,104701
2013-12-30,6.65,8.65,6.50,7.10,307590
2014-01-06,7.00,9.65,7.00,9.65,2102322
2014-01-13,9.80,12.65,9.80,10.50,1983925
2014-01-20,10.55,10.60,9.15,10.05,212996
2014-01-27,9.60,9.80,8.60,8.75,37572
2014-02-03,8.70,9.50,8.15,9.00,28305
2014-02-10,9.15,9.45,8.15,8.25,62491
2014-02-17,8.10,8.60,8.00,8.40,23785
2014-02-24,8.10,8.55,8.00,8.00,20149
2014-03-03,8.00,8.90,7.90,8.60,79407
2014-03-10,8.25,8.85,6.85,6.95,257288
2014-03-18,7.00,7.50,6.70,6.95,59501
2014-03-24,6.40,7.40,6.40,6.85,146190
2014-03-31,6.80,7.60,6.75,7.35,194370
2014-04-07,7.35,7.95,7.15,7.90,181218
2014-04-15,8.00,8.45,7.55,8.10,58670
2014-04-21,8.00,8.40,7.75,7.90,114045
2014-04-28,7.90,8.15,7.60,7.65,84199
2014-05-05,7.50,7.90,6.90,7.10,132751
2014-05-12,7.15,8.35,7.05,7.20,166358
2014-05-19,7.25,10.70,7.25,9.60,625677
2014-05-26,10.00,10.40,7.90,9.25,1084626
2014-06-02,9.00,10.25,9.00,9.40,497864
2014-06-09,9.45,10.10,9.00,9.25,610262
2014-06-16,9.20,9.45,8.70,8.70,105738
2014-06-23,8.80,9.20,8.45,8.90,174186
2014-06-30,9.30,9.30,7.80,8.00,549659
2014-07-07,7.80,8.15,7.00,7.45,196806
2014-07-14,7.75,7.80,7.10,7.70,58761
2014-07-21,7.50,8.05,7.45,7.70,60279
2014-07-28,7.50,7.70,7.10,7.35,72717
2014-08-04,7.25,7.90,7.20,7.30,60071
2014-08-11,7.15,7.60,6.75,7.10,79030
2014-08-18,7.00,7.60,6.80,7.45,102563
2014-08-25,6.90,7.45,6.80,6.90,39438
2014-09-01,6.55,7.75,6.55,7.30,97302
2014-09-08,7.20,10.70,7.20,10.50,1596163
2014-09-15,10.55,10.80,8.60,8.75,331663
2014-09-22,8.30,8.80,7.45,7.75,148001
2014-09-29,7.75,8.60,7.60,7.75,62804
2014-10-07,8.00,8.00,7.50,7.75,39216
2014-10-13,8.00,8.30,7.20,7.50,183789
2014-10-20,7.75,7.90,7.40,7.85,55836
2014-10-27,7.95,7.95,7.40,7.60,87456
2014-11-03,7.40,8.15,7.40,7.65,106674
2014-11-10,7.85,8.20,7.35,8.05,234682
2014-11-17,8.10,10.00,7.60,8.65,716742
2014-11-24,9.00,9.00,7.50,7.65,156932
2014-12-01,7.70,8.40,7.10,7.80,246525
2014-12-08,7.80,8.35,7.30,7.55,217993
2014-12-15,7.60,7.75,6.65,7.20,130060
2014-12-22,7.15,7.85,7.10,7.50,93875
2014-12-29,7.45,7.90,7.10,7.50,137353
2015-01-05,7.50,7.85,7.00,7.35,186921
2015-01-12,7.50,7.90,7.10,7.30,81784
2015-01-19,7.20,7.75,7.10,7.30,185733
2015-01-27,7.35,7.60,6.90,7.00,175294
2015-02-02,7.15,7.50,6.60,6.60,172297
2015-02-09,6.65,7.65,6.30,6.65,57698
2015-02-16,7.50,7.50,6.55,6.80,43953
2015-02-23,6.75,6.95,6.25,6.30,118961
2015-03-02,6.30,7.55,6.25,6.95,896993
2015-03-09,7.15,7.40,6.00,6.35,331004
2015-03-16,6.30,6.50,5.95,6.00,327235
2015-03-23,6.35,6.35,5.40,5.75,349974
2015-03-30,6.00,6.20,5.65,6.15,102208
2015-04-06,6.25,7.20,6.15,6.85,430797
2015-04-13,7.15,8.50,6.90,8.15,701156
2015-04-20,8.25,8.30,7.40,7.60,171700
2015-04-27,8.05,8.90,7.65,8.50,260927
2015-05-04,8.10,8.95,7.40,7.50,215733
2015-05-11,7.30,8.30,7.20,7.65,89069
2015-05-18,7.65,10.05,7.65,9.50,694468
2015-05-25,9.75,9.85,9.25,9.60,673526
2015-06-01,10.00,10.50,9.40,9.75,546363
2015-06-08,9.70,9.95,9.65,9.65,170225
2015-06-15,9.60,9.80,9.60,9.65,169241
2015-06-22,9.65,9.95,9.65,9.70,217465
2015-06-29,9.60,10.00,9.55,9.70,107060
2015-07-06,9.65,12.75,9.65,12.00,1085738
2015-07-13,12.00,12.80,10.15,11.00,259252
2015-07-20,11.05,13.20,10.50,12.30,396685
2015-07-27,12.30,15.00,11.70,13.70,687124
2015-08-03,13.70,14.90,13.25,13.65,321897
2015-08-10,13.50,13.65,11.70,12.65,317181
2015-08-17,12.50,13.70,11.80,12.30,195734
2015-08-24,12.00,12.95,10.60,12.75,324512
2015-08-31,12.85,13.30,10.90,11.10,148946
2015-09-07,11.00,11.00,9.65,10.60,111129
2015-09-14,10.55,10.85,10.05,10.40,14568
2015-09-21,10.40,10.80,10.10,10.55,43343
2015-09-28,10.90,11.30,10.50,10.75,79710
2015-10-05,10.60,11.70,10.30,11.15,102735
2015-10-12,10.90,12.00,10.85,11.90,85666
2015-10-19,12.30,15.75,11.75,13.70,813033
2015-10-26,13.55,14.50,12.60,12.85,124215
2015-11-02,13.80,13.80,11.90,12.85,141962
2015-11-09,12.70,13.00,12.15,12.70,27358
2015-11-16,12.50,15.20,12.50,14.15,386460
2015-11-23,15.00,15.00,13.40,14.50,230121
2015-11-30,13.90,18.85,13.85,18.35,2126286
2015-12-07,18.25,21.60,15.65,20.65,2101013
2015-12-14,21.40,31.60,20.60,31.60,4558305
2015-12-21,34.40,34.75,28.35,28.35,2996981
2015-12-28,27.30,28.25,24.50,26.55,1899664
2016-01-04,26.60,27.50,24.60,24.95,558832
2016-01-11,24.95,25.20,21.30,21.65,363225
2016-01-18,21.05,21.65,17.90,18.95,324887
2016-01-25,19.50,22.85,19.35,22.85,96333
2016-02-01,23.95,25.10,23.05,23.35,616130
2016-02-08,23.30,24.25,19.90,19.90,90794
2016-02-15,19.90,22.80,19.85,21.85,186722
2016-02-22,22.60,23.20,21.10,22.60,112931
2016-02-29,22.50,25.80,22.45,24.80,201179
2016-03-08,24.00,27.85,23.60,26.70,744342
2016-03-14,27.00,27.25,25.05,25.80,189795
2016-03-21,25.75,27.00,25.00,25.55,119581
2016-03-28,25.05,26.90,24.30,25.45,192508
2016-04-04,25.40,26.50,23.15,25.10,220064
2016-04-11,24.55,25.60,23.80,23.95,80148
2016-04-18,23.95,24.75,21.40,23.60,90271
2016-04-25,24.40,24.40,22.05,22.50,115159
2016-05-02,22.50,23.45,22.10,22.50,51576
2016-05-09,22.40,24.80,22.40,23.10,173278
2016-05-16,23.10,23.90,20.40,21.90,166695
2016-05-23,21.65,26.30,19.55,23.15,1077861
2016-05-30,23.00,25.60,22.30,24.25,367949
2016-06-06,23.45,26.20,23.45,24.55,316695
2016-06-13,24.50,26.30,23.50,25.25,444194
2016-06-20,25.00,25.30,23.40,24.60,150274
2016-06-27,25.00,27.95,23.75,26.35,458790
2016-07-04,25.90,26.95,25.50,25.55,112281
2016-07-11,25.50,26.50,25.10,25.55,204442
2016-07-18,25.50,26.00,23.50,24.25,197718
2016-07-25,24.50,25.00,23.30,23.85,243561
2016-08-01,23.70,24.40,23.30,23.55,77867
2016-08-08,23.00,25.00,21.40,23.50,143282
2016-08-16,23.30,23.95,22.25,22.80,58645
2016-08-22,22.60,26.40,22.60,25.55,433983
2016-08-29,25.40,25.45,23.20,24.05,147965
2016-09-06,24.50,28.90,23.90,26.00,1007299
2016-09-12,25.80,29.80,24.50,27.20,1017698
2016-09-19,27.20,28.75,25.70,26.60,514693
2016-09-26,26.60,27.95,24.00,25.50,279477
2016-10-03,25.45,27.40,24.00,26.20,494712
2016-10-10,26.65,30.00,26.10,28.80,1249403
2016-10-17,29.60,29.75,27.45,27.60,350987
2016-10-24,27.55,29.70,27.45,28.05,281438
2016-11-01,28.20,36.20,28.10,32.50,1906064
2016-11-07,33.40,34.30,27.55,29.70,542510
2016-11-15,32.25,32.25,26.90,27.25,172331
2016-11-21,27.00,30.10,25.50,29.00,187853
2016-11-28,30.00,33.10,28.30,29.15,266229
2016-12-05,29.00,37.00,28.10,35.25,2411990
2016-12-12,34.20,37.80,32.15,35.40,2364147
2016-12-19,36.80,36.80,32.00,32.90,411241
2016-12-26,32.60,35.30,32.00,34.60,485418
2017-01-02,34.65,39.40,34.60,37.80,1316595
2017-01-09,37.90,41.00,36.50,38.25,769311
2017-01-16,40.00,40.35,37.10,37.45,450347
2017-01-23,37.40,38.45,35.30,36.05,340833
2017-01-30,35.50,36.40,31.70,33.75,645999
2017-02-06,34.25,37.50,33.75,36.05,663484
2017-02-13,36.00,36.80,33.30,33.70,148277
2017-02-20,33.50,34.80,31.60,31.90,161361
2017-02-27,31.95,34.85,31.75,33.65,435446
2017-03-06,33.20,33.50,30.65,31.30,255507
2017-03-14,32.45,32.80,31.00,31.90,178765
2017-03-20,32.90,34.40,31.05,32.80,236302
2017-03-27,33.25,34.00,31.50,32.85,356178
2017-04-03,32.85,34.00,31.00,31.55,311675
2017-04-10,31.90,33.00,31.00,31.30,282284
2017-04-17,31.25,31.95,29.70,30.65,467916
2017-04-24,30.50,31.40,28.10,29.00,573445
2017-05-02,29.45,30.50,28.60,28.90,198400
2017-05-08,28.75,33.50,28.70,31.15,951442
2017-05-15,31.15,31.90,28.70,28.90,208020
2017-05-22,29.00,29.75,26.80,28.75,218383
2017-05-29,28.65,29.30,27.10,27.45,114145
2017-06-05,27.50,28.65,26.10,26.95,140926
2017-06-12,27.00,28.60,26.40,26.75,241725
2017-06-19,26.75,27.20,25.50,25.95,139770
2017-06-27,26.85,26.85,23.75,24.10,168349
2017-07-03,24.15,25.95,24.15,25.25,91503
2017-07-10,24.80,25.75,24.10,24.95,91665
2017-07-17,25.00,25.75,24.00,24.75,142506
2017-07-24,24.75,25.50,23.00,23.20,356854
2017-07-31,23.20,23.80,22.00,22.05,231039
2017-08-07,22.05,22.70,18.15,19.90,195819
2017-08-14,20.10,29.70,19.55,27.55,803868
2017-08-21,28.40,28.40,23.10,23.85,196025
2017-08-28,23.90,24.60,22.75,23.55,74622
2017-09-04,24.75,25.60,23.10,24.00,63040
2017-09-11,23.90,24.90,23.00,24.60,116463
2017-09-18,24.60,28.50,23.55,24.10,665873
2017-09-25,23.60,25.70,23.00,23.60,117189
2017-10-03,23.70,29.00,22.15,26.05,730666
2017-10-09,25.90,27.05,24.35,25.65,227769
2017-10-16,25.40,27.00,24.00,25.60,288762
2017-10-23,25.50,26.25,24.50,25.10,225000
2017-10-30,25.55,27.30,24.65,25.75,236835
2017-11-06,25.75,27.00,24.55,25.65,342486
2017-11-13,25.25,28.90,24.20,25.00,647029
2017-11-20,24.75,27.60,24.50,27.05,422508
2017-11-27,27.05,27.50,25.25,25.85,244269
2017-12-04,26.50,29.40,24.90,28.00,808245
2017-12-11,28.00,30.80,26.85,27.65,1143186
2017-12-18,27.20,29.45,26.85,28.65,411141
2017-12-26,28.65,30.50,28.50,29.15,327853
2018-01-01,29.15,39.35,29.15,36.65,3807933
2018-01-08,37.30,39.40,35.60,37.70,1496279
2018-01-15,37.90,38.60,33.25,33.75,892182
2018-01-22,34.10,34.90,32.05,32.55,231306
2018-01-29,32.30,33.00,27.75,28.35,485064
2018-02-05,28.00,31.70,24.05,29.75,1179225
2018-02-12,30.20,31.00,28.00,28.25,429975
2018-02-19,27.60,29.40,26.55,28.85,250462
2018-02-26,29.40,32.50,27.60,27.75,241657
2018-03-05,28.10,28.30,26.00,26.50,187247
2018-03-12,26.65,30.60,26.40,28.85,278646
2018-03-19,28.85,30.50,26.05,26.25,188231
2018-03-26,26.25,26.80,24.50,24.55,390065
2018-04-02,25.45,27.75,24.05,27.20,482798
2018-04-09,27.00,28.10,25.90,27.40,493218
2018-04-16,27.20,27.70,26.15,26.80,152316
2018-04-23,27.25,27.70,25.60,27.10,273405
2018-04-30,27.50,28.60,26.00,27.70,139289
2018-05-07,27.50,29.00,26.80,27.05,207118
2018-05-14,27.70,27.70,26.10,26.70,57437
2018-05-21,26.75,27.15,23.70,24.35,200319
2018-05-28,24.35,25.80,23.50,23.60,153524
2018-06-04,23.75,24.00,21.00,21.85,172671
2018-06-11,21.80,24.00,20.20,23.25,144244
2018-06-18,23.25,23.50,22.00,22.30,42780
2018-06-25,21.50,23.25,19.60,22.35,269521
2018-07-02,22.95,32.95,21.15,31.75,2433541
2018-07-09,32.45,34.00,26.40,26.70,1032309
2018-07-16,26.70,27.70,23.40,23.75,641913
2018-07-23,23.80,26.10,22.65,23.75,678779
2018-07-30,23.80,27.30,23.80,26.25,1578798
2018-08-06,26.90,29.20,26.35,26.80,662571
2018-08-13,26.00,30.30,26.00,29.25,1111367
2018-08-20,29.60,30.30,26.90,27.35,1485044
2018-08-27,27.20,28.00,25.80,26.25,705540
2018-09-03,26.95,29.00,25.40,27.75,2330546
2018-09-10,27.90,28.95,26.50,26.65,765340
2018-09-17,26.65,28.00,24.55,25.05,286345
2018-09-24,25.05,26.80,23.60,23.75,135651
2018-10-01,23.50,23.90,20.20,21.35,888464
2018-10-08,21.10,24.45,20.85,22.40,139430
2018-10-15,23.40,29.70,22.00,28.55,1629838
2018-10-22,29.00,29.30,25.50,26.55,204647
2018-10-29,25.50,29.90,25.50,29.15,299916
2018-11-05,30.60,35.10,29.70,33.60,536366
2018-11-12,34.75,34.75,30.75,31.20,313665
2018-11-19,31.70,31.80,28.80,29.90,61815
2018-11-26,29.90,30.80,27.80,29.20,138350
2018-12-03,28.10,30.60,28.10,29.10,95281
2018-12-10,28.40,29.95,27.75,28.70,55871
2018-12-17,28.30,32.00,28.30,29.65,208250
2018-12-24,28.70,30.10,28.40,29.95,101789
2018-12-31,29.10,31.25,28.20,29.30,46777
2019-01-07,28.60,31.00,28.15,29.70,201832
2019-01-14,29.95,29.95,24.35,24.55,418587
2019-01-21,24.10,24.80,23.50,23.80,230555
2019-01-28,23.80,24.85,22.70,24.50,303391
2019-02-04,24.00,24.00,22.35,22.80,107424
2019-02-11,22.65,23.25,21.55,22.00,67728
2019-02-18,22.05,22.35,20.40,22.00,149774
2019-02-25,22.00,22.90,20.50,22.65,97087
2019-03-05,22.65,24.55,22.55,23.20,75560
2019-03-11,22.90,24.00,22.10,23.05,165675
2019-03-18,22.85,23.60,22.30,22.65,67150
2019-03-25,22.60,22.60,21.05,21.30,176792
2019-04-01,21.35,23.15,21.35,22.40,56881
2019-04-08,21.65,23.50,21.65,22.30,157668
2019-04-15,22.50,23.00,22.05,22.40,46133
2019-04-22,22.05,22.65,20.80,21.00,93836
2019-04-30,21.05,22.70,20.05,20.80,56270
2019-05-06,20.35,21.00,19.85,20.70,28032
2019-05-13,20.55,21.60,18.95,21.20,77874
2019-05-20,20.80,21.90,20.80,21.75,83226
2019-05-27,21.50,22.25,20.75,20.95,74657
2019-06-03,21.40,21.40,19.90,20.70,66394
2019-06-10,20.55,20.90,19.65,20.00,73241
2019-06-17,19.90,22.00,16.10,17.50,244749
2019-06-24,17.30,20.00,16.80,19.05,114802
2019-07-01,18.90,19.70,18.10,19.05,35390
2019-07-08,18.90,18.90,17.00,17.40,86058
2019-07-15,16.65,17.70,16.40,16.80,150772
2019-07-22,16.40,17.15,15.20,16.90,47751
2019-07-29,16.50,17.50,15.60,15.65,58478
2019-08-05,15.10,16.50,13.80,15.75,108071
2019-08-13,15.70,15.70,14.05,15.00,52695
2019-08-19,14.95,15.05,12.65,13.10,110231
2019-08-26,13.35,14.60,13.30,13.90,63539
2019-09-03,14.05,15.95,13.85,15.55,21966
2019-09-09,15.55,21.45,15.55,18.00,391610
2019-09-16,17.90,18.95,17.10,18.10,90479
2019-09-23,18.10,20.25,17.15,18.40,559672
2019-09-30,18.20,18.75,15.20,15.35,214155
2019-10-07,15.30,15.75,14.20,14.65,70931
2019-10-14,14.95,17.45,14.20,16.95,97785
2019-10-22,16.90,17.30,15.80,17.10,230426
2019-10-29,16.90,17.95,15.50,16.10,157246
2019-11-04,16.05,16.80,15.10,15.50,85418
2019-11-11,15.65,15.75,14.80,15.05,25390
2019-11-18,15.00,15.10,14.00,14.20,29986
2019-11-25,13.95,14.85,13.95,14.30,61957
2019-12-02,14.25,15.25,13.90,13.95,95814
2019-12-09,14.20,14.40,13.10,13.45,44652
2019-12-16,13.35,15.10,13.15,13.65,167291
2019-12-23,14.50,14.80,12.65,13.95,278412
2019-12-30,14.10,15.40,13.35,14.70,72589
2020-01-06,14.70,15.60,14.10,14.70,67033
2020-01-13,14.60,17.20,14.60,16.30,160767
2020-01-20,16.30,16.35,15.25,16.00,106581
2020-01-27,15.90,15.90,13.50,13.75,116542
2020-02-03,13.65,15.25,13.30,14.55,46679
2020-02-10,14.45,15.85,13.25,13.45,58991
2020-02-17,13.55,15.50,13.30,14.45,56085
2020-02-24,14.10,14.80,12.90,13.65,31588
2020-03-02,13.50,13.70,11.75,13.05,98263
2020-03-09,13.05,13.90,10.00,11.55,191436
2020-03-16,12.30,12.85,10.30,12.20,88567
2020-03-23,11.70,11.90,9.80,11.15,112308
2020-03-30,10.90,11.90,10.25,10.95,60792
2020-04-07,11.25,16.45,11.15,14.45,194906
2020-04-13,15.50,15.50,12.60,13.70,107891
2020-04-20,13.95,14.05,12.15,12.65,111065
2020-04-27,12.35,13.20,12.35,12.70,72835
2020-05-04,12.50,13.40,11.95,12.40,96488
2020-05-11,12.35,12.80,11.70,12.00,143805
2020-05-18,11.90,12.40,11.00,11.90,60784
2020-05-26,12.40,12.65,10.35,11.65,125225
2020-06-01,11.30,12.50,11.30,12.25,149779
2020-06-08,12.25,12.80,11.65,12.10,166505
2020-06-15,12.50,14.85,11.75,14.00,345517
2020-06-22,14.15,16.70,13.90,14.95,723176
2020-06-29,15.00,17.50,14.55,15.50,731029
2020-07-06,15.50,16.20,14.55,14.95,927587
2020-07-13,15.45,15.45,13.80,14.35,162326
2020-07-20,14.60,17.30,14.15,16.10,1122244
2020-07-27,16.40,17.30,15.50,16.60,824278
2020-08-03,16.60,16.70,15.60,16.10,222393
2020-08-10,16.50,16.95,15.60,15.90,452130
2020-08-17,15.90,16.30,15.50,15.60,298117
2020-08-24,15.50,15.90,14.80,15.20,317969
2020-08-31,15.45,15.45,13.75,13.90,228139
2020-09-07,13.85,14.50,13.30,13.95,89978
2020-09-14,13.95,15.95,13.20,14.30,634775
2020-09-21,14.15,15.20,13.00,13.95,197588
2020-09-28,14.70,14.70,13.00,13.20,131053
2020-10-05,13.70,14.00,13.10,13.40,149826
2020-10-12,13.30,13.45,12.35,12.90,69943
2020-10-19,12.85,13.50,12.65,12.90,68312
2020-10-26,13.10,13.30,12.40,12.65,52640
2020-11-02,12.75,13.10,12.25,12.70,123129
2020-11-09,12.80,13.00,12.15,12.60,173521
2020-11-17,12.55,13.80,12.40,13.55,367147
2020-11-23,13.40,14.05,13.05,13.35,169856
2020-12-01,13.15,15.30,13.15,14.05,422447
2020-12-07,14.80,15.20,14.00,14.45,363557
2020-12-14,14.85,16.95,14.20,15.65,851235
2020-12-21,15.95,16.50,14.10,15.65,593030
2020-12-28,15.50,17.25,15.00,16.20,681090
2021-01-04,16.70,16.70,15.40,15.60,549943
2021-01-11,15.50,16.70,14.20,15.70,848022
2021-01-18,16.00,16.50,14.50,14.65,733441
2021-01-25,14.75,15.10,14.40,14.75,125411
2021-02-01,15.00,15.45,14.50,14.75,292392
2021-02-08,14.45,15.00,14.30,14.35,165175
2021-02-15,14.50,14.75,14.10,14.20,259904
2021-02-22,14.50,15.40,13.90,14.45,153713
2021-03-01,14.60,18.30,14.20,16.85,2296094
2021-03-08,17.40,20.40,16.85,17.20,3085346
2021-03-15,17.50,17.75,15.10,16.05,604522
2021-03-22,16.05,18.00,15.05,15.95,562837
2021-03-30,15.95,17.35,15.95,16.80,163775
2021-04-05,16.95,16.95,15.30,15.55,205207
2021-04-12,15.40,15.50,14.50,14.80,77353
2021-04-19,15.00,15.00,13.40,14.80,97238
2021-04-26,15.00,15.70,14.20,14.60,216954
2021-05-03,14.60,17.10,14.05,16.65,938117
2021-05-10,16.65,17.70,15.70,16.15,421551
2021-05-17,16.55,17.30,15.75,16.55,455526
2021-05-24,16.55,18.45,16.30,17.10,1342235
2021-05-31,18.50,19.70,17.55,18.35,2467981
2021-06-07,18.35,20.45,18.00,19.95,2404087
2021-06-14,20.25,20.95,18.30,19.00,1806952
2021-06-21,18.90,22.40,17.40,20.50,4795691
2021-06-28,20.70,21.20,19.60,19.90,1510121
2021-07-05,20.10,24.95,19.60,23.05,7977696
2021-07-12,23.00,23.40,20.40,20.65,1565870
2021-07-19,20.50,21.85,18.70,20.65,1178746
2021-07-26,20.85,25.70,19.90,24.70,4213722
2021-08-02,27.70,27.70,21.50,22.70,2861588
2021-08-09,22.75,23.30,18.90,21.35,1052864
2021-08-16,21.15,21.50,17.00,18.70,685287
2021-08-23,19.20,20.60,18.20,18.90,514495
2021-08-30,18.95,20.90,18.95,19.60,554402
2021-09-06,19.70,19.95,18.90,19.15,485534
2021-09-13,19.15,19.50,18.00,18.70,492386
2021-09-20,18.75,19.10,17.90,18.10,303905
2021-09-27,18.20,20.75,17.70,19.60,890618
2021-10-04,19.95,21.10,19.35,20.25,818601
2021-10-11,20.45,22.15,20.05,20.90,1071810
2021-10-18,20.95,20.95,19.05,19.25,373465
2021-10-25,19.20,20.20,18.35,18.80,289320
2021-11-01,19.50,19.50,18.65,19.05,126548
2021-11-08,19.00,22.35,18.60,21.95,1686265
2021-11-15,21.55,21.60,19.75,19.95,984780
2021-11-22,19.75,20.75,18.05,19.05,482920
2021-11-29,19.10,19.45,18.05,18.65,263576
2021-12-06,18.65,21.20,18.50,20.60,817356
2021-12-13,21.00,22.00,18.95,19.25,930754
2021-12-20,18.95,19.80,17.05,18.25,688552
2021-12-27,18.40,21.45,18.00,20.20,1522056
2022-01-03,20.25,22.85,20.10,20.85,2015041
2022-01-10,21.15,22.75,20.90,21.35,1067298
2022-01-17,21.20,21.90,19.60,20.30,539476
2022-01-24,20.00,20.60,18.75,19.65,418533
2022-01-31,20.05,21.50,19.25,20.60,862562
2022-02-07,20.85,20.85,19.35,19.65,274563
2022-02-14,19.05,20.90,18.35,18.85,522341
2022-02-21,19.20,19.20,16.55,17.75,382590
2022-02-28,17.75,18.25,16.20,17.15,171966
2022-03-07,17.40,18.90,16.60,18.55,279387
2022-03-14,18.55,20.30,18.35,19.50,928820
2022-03-21,19.80,19.80,17.50,17.75,1071335
2022-03-28,17.95,18.00,16.90,17.70,982442
2022-04-04,18.20,21.30,18.00,20.50,1460120
2022-04-11,20.85,20.90,18.95,19.65,408830
2022-04-18,19.00,21.90,18.85,20.60,2009129
2022-04-25,20.70,20.80,18.80,18.85,550487
2022-05-02,18.80,19.10,17.60,17.75,276679
2022-05-09,17.45,17.95,16.15,16.60,307929
2022-05-16,16.95,18.50,16.90,17.70,260158
2022-05-23,17.95,17.95,16.15,16.85,166924
2022-05-30,16.85,17.30,16.00,16.15,197010
2022-06-06,16.45,16.65,15.90,16.05,108184
2022-06-13,15.45,16.45,15.20,15.25,81155
2022-06-20,15.25,15.80,14.30,15.30,148233
2022-06-27,15.10,15.90,15.00,15.40,114353
2022-07-04,15.80,17.10,15.35,16.10,330646
2022-07-11,15.90,16.65,15.55,15.90,156730
2022-07-18,16.20,16.65,15.85,16.05,181261
2022-07-25,16.10,16.40,15.75,15.85,148900
2022-08-01,16.40,17.25,16.05,16.40,334960
2022-08-08,16.35,17.20,16.05,16.30,264591
2022-08-16,16.45,16.95,16.10,16.65,140758
2022-08-22,16.25,17.30,16.15,17.05,313247
2022-08-29,16.90,17.45,16.60,16.80,161528
2022-09-05,16.80,18.35,16.60,17.80,691946
2022-09-12,18.00,18.05,16.50,16.80,269129
2022-09-19,17.30,17.30,15.80,16.00,132427
2022-09-26,16.10,16.20,15.20,15.50,85867
2022-10-03,15.50,16.50,15.05,16.15,103778
2022-10-10,15.90,16.45,15.75,16.00,56581
2022-10-17,16.20,16.20,15.10,15.35,87806
2022-10-24,15.65,16.05,15.15,15.95,164825
2022-10-31,15.70,16.25,15.30,16.00,160715
2022-11-07,16.00,17.00,15.75,15.95,184881
2022-11-14,15.95,16.10,15.30,15.40,160405
2022-11-21,15.30,15.80,15.00,15.60,130150
2022-11-28,15.75,15.85,14.85,15.10,259483
2022-12-05,15.10,15.60,15.05,15.05,270703
2022-12-12,15.55,17.00,14.35,15.30,880661
2022-12-19,15.70,17.50,14.40,14.50,1329904
2022-12-26,14.50,15.95,14.50,15.40,349722
2023-01-02,15.60,16.30,15.35,15.65,345598
2023-01-09,15.95,16.00,15.15,15.35,125346
2023-01-16,15.35,15.70,14.95,15.20,104773
2023-01-23,15.45,15.45,14.20,14.30,111213
2023-01-30,14.35,14.70,13.60,13.85,194738
2023-02-06,13.80,14.25,13.55,13.80,144262
2023-02-13,13.65,13.90,13.20,13.50,120487
2023-02-20,13.90,13.90,12.85,13.00,122520
2023-02-27,12.95,13.25,10.80,12.70,356657
2023-03-06,12.40,13.00,11.45,11.65,250305
2023-03-13,11.90,11.90,11.05,11.40,195473
2023-03-20,11.00,11.60,10.65,10.70,257820
2023-03-27,10.80,11.75,10.35,11.15,446622
2023-04-03,11.40,13.20,11.15,12.05,302154
2023-04-10,12.50,13.45,11.50,13.00,758830
2023-04-17,13.30,13.30,12.05,12.20,453070
2023-04-24,12.20,12.85,11.95,12.75,143605
2023-05-02,12.75,13.35,12.35,12.85,177086
2023-05-08,12.95,14.25,12.80,13.05,404200
2023-05-15,13.10,13.70,12.70,12.95,271376
2023-05-22,12.95,13.95,12.60,13.55,339191
2023-05-29,13.60,13.90,12.60,12.95,188611
2023-06-05,13.20,13.95,12.85,13.20,577705
2023-06-12,13.10,13.80,13.05,13.45,315623
2023-06-19,13.25,13.70,13.00,13.10,207073
2023-06-26,13.25,13.50,12.95,13.20,113919
2023-07-03,13.45,13.50,12.55,12.90,200401
2023-07-10,12.90,13.00,12.60,12.65,128070
2023-07-17,12.60,12.90,12.45,12.50,185730
2023-07-24,12.50,12.60,12.25,12.35,161571
2023-07-31,12.35,12.60,12.15,12.30,161174
2023-08-07,12.20,13.50,12.10,12.90,664147
2023-08-14,12.90,13.90,12.60,13.05,815116
2023-08-21,13.25,13.80,12.95,13.45,517009
2023-08-28,13.50,13.60,12.90,13.05,493475
2023-09-04,13.10,18.55,13.00,16.25,8273776
2023-09-11,16.50,16.65,14.55,16.20,1114930
2023-09-18,16.45,16.45,14.95,15.05,343921
2023-09-25,15.30,15.65,14.60,14.70,388633
2023-10-03,14.80,15.25,14.55,15.05,171143
2023-10-09,15.05,16.40,14.40,15.55,1133354
2023-10-16,15.80,16.00,14.80,15.00,532910
2023-10-23,15.20,15.20,13.25,13.70,990940
2023-10-30,13.70,14.40,13.60,14.05,1303701
2023-11-06,14.00,16.20,14.00,15.75,3468170
2023-11-13,15.70,15.80,14.95,15.50,2629258
2023-11-20,15.35,18.20,15.35,17.05,5160996
2023-11-28,17.45,17.50,15.80,16.15,2450056
2023-12-04,16.50,17.65,15.75,16.75,1741432
2023-12-11,17.00,17.00,16.15,16.20,782599
2023-12-18,16.25,19.80,16.25,18.35,6672951
2023-12-26,18.60,18.85,16.50,17.50,1195239
2024-01-01,17.70,20.80,17.55,19.25,4826372
2024-01-08,19.25,20.70,19.05,19.35,2168015
2024-01-15,19.45,20.60,18.40,19.50,1965548
2024-01-23,19.50,19.75,17.70,18.55,1335299
2024-01-29,18.85,19.90,18.10,18.50,2457517
2024-02-05,18.70,24.35,18.00,21.95,13228431
2024-02-12,22.00,22.40,18.70,21.25,2285488
2024-02-19,21.65,21.65,19.20,19.90,1583130
2024-02-26,20.00,20.10,17.90,19.30,1621968
2024-03-04,19.30,20.70,18.35,18.75,1815983
2024-03-11,18.95,18.95,14.80,15.90,1234508
2024-03-18,15.65,16.50,14.55,15.75,1208367
2024-03-26,16.00,16.15,14.50,14.65,595484
2024-04-01,14.50,21.25,14.40,20.85,3738211
2024-04-08,21.55,21.55,18.30,18.90,1024454
2024-04-15,17.80,23.10,17.30,22.10,4005539
2024-04-22,23.05,23.20,21.00,21.60,1183487
2024-04-29,21.95,23.25,21.15,22.60,1353343
2024-05-06,22.75,23.00,20.15,20.60,581363
2024-05-13,20.60,22.25,19.60,21.40,526623
2024-05-21,21.00,22.00,20.30,20.55,322710
2024-05-27,20.60,21.10,19.55,19.70,346619
2024-06-03,19.75,21.50,17.50,20.00,632491
2024-06-10,20.90,20.90,19.56,20.02,429763
2024-06-18,20.05,20.49,19.00,19.46,399400
2024-06-24,19.65,20.14,19.00,19.61,579482
2024-07-01,19.74,21.80,19.62,21.02,1234136
2024-07-08,21.44,21.99,20.25,21.10,736371
2024-07-15,21.47,21.47,19.81,20.07,427595
2024-07-22,19.95,23.27,19.00,21.25,1731612
2024-07-29,21.06,21.65,19.86,20.77,452939
2024-08-05,20.52,22.78,19.02,21.83,1525125
2024-08-12,21.99,22.40,19.81,20.11,444155
2024-08-19,20.34,25.35,19.84,22.25,5469980
2024-08-26,22.70,23.45,20.06,20.98,1184184
2024-09-02,21.30,22.81,20.85,21.97,1466865
2024-09-09,21.96,22.50,21.45,21.96,785855
2024-09-16,22.38,22.40,20.45,21.09,585681
2024-09-23,21.10,21.45,19.97,20.16,575734
2024-09-30,20.16,21.00,19.45,19.61,584791
2024-10-07,19.87,20.89,18.61,19.92,530538
2024-10-14,20.25,20.25,18.65,19.06,317626
2024-10-21,19.44,19.44,17.12,17.40,327132
2024-10-28,17.10,18.77,16.91,18.62,259716
2024-11-04,19.05,20.10,18.60,18.77,326669
2024-11-11,19.15,19.30,17.11,17.58,147474
2024-11-18,17.58,17.70,16.20,16.71,202653
2024-11-25,16.99,18.40,16.20,17.89,208669
2024-12-02,18.30,20.00,18.01,19.15,430221
2024-12-09,19.15,20.75,18.74,19.00,484951
2024-12-16,18.83,20.13,18.46,18.75,403532
2024-12-23,18.75,18.93,17.31,17.83,155466
2024-12-30,17.53,18.99,17.35,18.30,178964
2025-01-06,18.17,18.54,17.00,17.20,216500
2025-01-13,17.00,17.60,16.25,16.88,316168
2025-01-20,17.19,17.50,14.60,15.14,362763
2025-01-27,15.14,21.20,14.50,20.07,1566057
2025-02-03,20.06,20.80,18.50,19.50,530663
2025-02-10,20.00,23.50,19.00,22.43,2920959
2025-02-17,22.95,31.20,22.00,30.22,3816864
2025-02-24,32.00,36.26,31.07,31.07,5893348
2025-03-03,29.51,29.51,24.01,26.54,512524
2025-03-10,27.60,27.80,22.61,25.00,1089766
2025-03-17,24.05,28.06,22.71,28.06,352567
2025-03-24,29.40,32.81,28.50,32.81,238891
2025-04-01,33.46,35.49,33.46,35.49,107007
2025-04-07,36.19,38.39,36.19,38.39,268887
2025-04-15,39.15,40.72,39.15,40.72,75796
2025-04-21,39.90,39.90,36.78,36.78,1169639
2025-04-28,36.78,36.78,33.90,33.90,343729
2025-05-05,32.50,33.97,29.06,33.95,1714732
2025-05-12,35.64,39.29,35.38,37.50,1579224
2025-05-19,37.40,40.58,37.10,40.58,154068
2025-05-26,41.39,44.78,41.39,43.03,907413
2025-06-02,42.16,42.16,38.87,38.87,228944
2025-06-09,38.09,39.64,36.54,36.54,522518
2025-06-16,35.80,35.80,33.00,33.00,1296826
2025-06-23,31.35,32.91,29.78,32.88,1330785
2025-06-30,33.40,36.24,31.05,32.07,913859
2025-07-07,31.40,32.90,30.65,31.75,207179
2025-07-14,32.24,36.94,30.96,36.94,509259
2025-07-21,35.51,38.00,33.12,33.12,638749
2025-07-28,32.45,33.69,32.45,33.60,170124
2025-08-04,33.00,34.92,32.82,33.00,61688
2025-08-11,33.00,33.00,31.06,31.06,36665
2025-08-18,31.21,32.87,30.43,32.87,111366
2025-08-25,32.98,33.52,31.05,31.10,147582
2025-09-01,31.41,32.20,29.00,29.61,159474
2025-09-08,29.61,31.41,29.26,31.03,115643
2025-09-15,32.50,37.23,32.20,34.79,1358846
2025-09-22,35.45,35.45,31.20,31.38,725319
2025-09-29,30.55,33.50,29.20,33.10,209728
2025-10-06,32.51,33.79,31.00,31.49,162816
2025-10-13,31.01,33.02,29.40,29.71,378556
2025-10-20,29.11,31.00,29.00,29.94,77442
2025-10-27,29.56,30.47,29.00,29.14,138472
2025-11-03,29.20,29.90,27.05,28.16,101130
2025-11-10,27.17,30.69,27.17,29.29,182118
2025-11-17,30.00,32.00,28.30,29.13,367965
2025-11-24,28.30,30.85,27.33,30.21,392647
2025-12-01,29.90,31.48,29.02,30.14,163403
2025-12-08,30.01,32.01,29.26,31.17,254977
2025-12-15,30.60,31.99,30.00,30.60,185164
2025-12-22,31.08,32.30,30.60,30.94,157335
2025-12-29,31.56,35.00,30.89,31.81,261304
2026-01-05,31.70,33.30,30.80,30.91,88395
2026-01-12,30.91,32.98,29.20,30.63,79238
2026-01-19,30.69,35.50,29.20,30.56,473056
2026-01-27,30.56,32.05,29.30,30.52,262992
2026-02-02,29.45,31.58,29.25,30.54,247240
2026-02-09,30.54,31.60,29.78,30.63,136990
2026-02-16,31.50,31.99,29.65,31.07,468880
2026-02-23,31.19,40.38,30.70,35.54,1795618
2026-03-02,35.50,38.48,32.10,35.88,465832
2026-03-09,35.87,42.00,33.75,36.76,1520164
2026-03-16,35.72,36.53,32.91,32.98,497478
2026-03-23,32.90,33.90,29.10,30.46,606484
2026-03-30,30.90,32.00,28.56,30.16,254151
2026-04-06,30.00,33.85,30.00,33.49,399170
2026-04-13,33.01,36.45,32.58,36.05,252504
2026-04-20,34.40,35.99,32.11,32.60,158905
2026-04-27,32.60,33.70,31.20,32.32,92025
2026-05-04,32.34,34.40,31.35,32.10,224427
2026-05-11,31.51,33.00,28.10,29.12,195808
2026-05-18,29.90,31.29,28.30,28.98,147740
2026-05-25,29.29,31.34,28.10,29.68,110654
2026-06-01,29.68,30.39,28.80,29.56,87883
2026-06-08,29.66,30.40,28.10,29.15,112380
2026-06-15,29.70,30.46,28.66,29.27,85313
2026-06-22,29.27,29.89,28.40,29.06,58147
2026-06-29,28.50,30.19,27.90,28.98,69322
2026-07-06,28.60,29.87,28.00,29.21,54751
2026-07-13,29.19,29.96,28.32,28.84,68735
2026-07-20,28.84,29.94,27.12,28.57,152307
2026-07-27,28.74,29.48,28.02,28.39,60163
2026-08-03,28.39,34.48,28.39,33.08,777463
2026-08-10,32.35,35.00,30.90,31.62,230907
2026-08-17,31.00,33.90,30.70,31.79,75692
2026-08-24,33.20,33.49,30.25,31.80,80378
2026-08-31,30.57,32.96,30.50,31.75,80008
2026-09-07,31.43,34.50,30.52,30.95,262977
2026-09-15,30.95,32.71,30.00,31.33,81595
